sigma,transmittance
448.0,0.4585
449.0,0.4616
450.0,0.4648
451.0,0.4679
452.0,0.471
453.0,0.4741
454.0,0.4771
455.0,0.4801
456.0,0.4831
457.0,0.4861
458.0,0.4891
459.0,0.4926
460.0,0.4961
461.0,0.4997
462.0,0.5032
463.0,0.5067
464.0,0.5103
465.0,0.5138
466.0,0.5183
467.0,0.5229
468.0,0.5275
469.0,0.5321
470.0,0.5367
471.0,0.5414
472.0,0.546
473.0,0.5507
474.0,0.5556
475.0,0.5605
476.0,0.5655
477.0,0.5704
478.0,0.5753
479.0,0.5802
480.0,0.5851
481.0,0.5899
482.0,0.5946
483.0,0.5993
484.0,0.6041
485.0,0.6088
486.0,0.6135
487.0,0.6183
488.0,0.6235
489.0,0.6287
490.0,0.634
491.0,0.6393
492.0,0.6445
493.0,0.6494
494.0,0.6542
495.0,0.659
496.0,0.6637
497.0,0.6682
498.0,0.6722
499.0,0.6763
500.0,0.6803
501.0,0.6844
502.0,0.6872
503.0,0.6895
504.0,0.6919
505.0,0.6943
506.0,0.6966
507.0,0.699
508.0,0.7013
509.0,0.7036
510.0,0.7058
511.0,0.7081
512.0,0.7103
513.0,0.7126
514.0,0.7148
515.0,0.717
516.0,0.7193
517.0,0.7215
518.0,0.7237
519.0,0.726
520.0,0.7282
521.0,0.7304
522.0,0.7327
523.0,0.7349
524.0,0.7371
525.0,0.7394
526.0,0.7416
527.0,0.7438
528.0,0.7461
529.0,0.7483
530.0,0.7505
531.0,0.7528
532.0,0.7552
533.0,0.7575
534.0,0.7598
535.0,0.7621
536.0,0.7644
537.0,0.7667
538.0,0.771
539.0,0.7759
540.0,0.7807
541.0,0.7854
542.0,0.7898
543.0,0.7941
544.0,0.7985
545.0,0.8029
546.0,0.8074
547.0,0.8119
548.0,0.8164
549.0,0.8209
550.0,0.8252
551.0,0.8286
552.0,0.8321
553.0,0.8355
554.0,0.8389
555.0,0.8423
556.0,0.8453
557.0,0.8482
558.0,0.8512
559.0,0.8541
560.0,0.8571
561.0,0.8601
562.0,0.8631
563.0,0.8661
564.0,0.8692
565.0,0.8722
566.0,0.8746
567.0,0.877
568.0,0.8794
569.0,0.8819
570.0,0.8843
571.0,0.8862
572.0,0.8876
573.0,0.889
574.0,0.8904
575.0,0.8914
576.0,0.8922
577.0,0.8931
578.0,0.8939
579.0,0.8947
580.0,0.8955
581.0,0.8963
582.0,0.8969
583.0,0.8971
584.0,0.8974
585.0,0.8976
586.0,0.8978
587.0,0.8981
588.0,0.8983
589.0,0.8984
590.0,0.8985
591.0,0.8986
592.0,0.8988
593.0,0.8989
594.0,0.899
595.0,0.8993
596.0,0.8998
597.0,0.9003
598.0,0.9008
599.0,0.9013
600.0,0.9018
601.0,0.9029
602.0,0.9041
603.0,0.9053
604.0,0.9064
605.0,0.9076
606.0,0.9088
607.0,0.9098
608.0,0.9107
609.0,0.9117
610.0,0.9126
611.0,0.9124
612.0,0.9122
613.0,0.9119
614.0,0.9116
615.0,0.9114
616.0,0.911
617.0,0.9105
618.0,0.91
619.0,0.9095
620.0,0.909
621.0,0.9085
622.0,0.9079
623.0,0.9074
624.0,0.9068
625.0,0.9062
626.0,0.9056
627.0,0.905
628.0,0.9048
629.0,0.9048
630.0,0.9048
631.0,0.9048
632.0,0.9048
633.0,0.9048
634.0,0.9066
635.0,0.9047
636.0,0.9051
637.0,0.9059
638.0,0.9066
639.0,0.9074
640.0,0.9082
641.0,0.9089
642.0,0.9096
643.0,0.9102
644.0,0.9108
645.0,0.9115
646.0,0.9121
647.0,0.9127
648.0,0.913
649.0,0.9133
650.0,0.9137
651.0,0.9126
652.0,0.9115
653.0,0.9104
654.0,0.9092
655.0,0.9077
656.0,0.9062
657.0,0.9046
658.0,0.903
659.0,0.9014
660.0,0.8997
661.0,0.8981
662.0,0.8964
663.0,0.8948
664.0,0.893
665.0,0.8912
666.0,0.8894
667.0,0.8875
668.0,0.8858
669.0,0.8845
670.0,0.8831
671.0,0.8818
672.0,0.8805
673.0,0.8811
674.0,0.8818
675.0,0.8827
676.0,0.8837
677.0,0.8846
678.0,0.8849
679.0,0.8852
680.0,0.8856
681.0,0.8852
682.0,0.8846
683.0,0.8818
684.0,0.8783
685.0,0.8747
686.0,0.8711
687.0,0.8673
688.0,0.8629
689.0,0.8585
690.0,0.8535
691.0,0.8484
692.0,0.8433
693.0,0.8382
694.0,0.8329
695.0,0.8275
696.0,0.8221
697.0,0.8168
698.0,0.8114
699.0,0.8047
700.0,0.7978
701.0,0.7909
702.0,0.7841
703.0,0.7709
704.0,0.7545
705.0,0.7381
706.0,0.7217
707.0,0.7053
708.0,0.6889
709.0,0.6725
710.0,0.656
711.0,0.6396
712.0,0.6234
713.0,0.608
714.0,0.5795
715.0,0.532
716.0,0.4846
717.0,0.4371
718.0,0.3896
719.0,0.3422
720.0,0.2947
721.0,0.2472
722.0,0.2125
723.0,0.2095
724.0,0.2076
725.0,0.2095
726.0,0.2057
727.0,0.2059
728.0,0.2066
729.0,0.2083
730.0,0.225
731.0,0.2551
732.0,0.2852
733.0,0.3152
734.0,0.3453
735.0,0.3754
736.0,0.4054
737.0,0.4355
738.0,0.4656
739.0,0.4957
740.0,0.5257
741.0,0.5558
742.0,0.5859
743.0,0.6159
744.0,0.646
745.0,0.6761
746.0,0.7061
747.0,0.7152
748.0,0.7157
749.0,0.7144
750.0,0.7129
751.0,0.7109
752.0,0.7029
753.0,0.6833
754.0,0.6636
755.0,0.6439
756.0,0.6243
757.0,0.6046
758.0,0.585
759.0,0.5666
760.0,0.5652
761.0,0.5679
762.0,0.5658
763.0,0.5668
764.0,0.5675
765.0,0.5807
766.0,0.605
767.0,0.6294
768.0,0.6537
769.0,0.678
770.0,0.7023
771.0,0.7267
772.0,0.751
773.0,0.7753
774.0,0.7854
775.0,0.7898
776.0,0.7931
777.0,0.7955
778.0,0.797
779.0,0.7978
780.0,0.7981
781.0,0.7985
782.0,0.7988
783.0,0.7992
784.0,0.8001
785.0,0.8051
786.0,0.812
787.0,0.818
788.0,0.824
789.0,0.8315
790.0,0.8397
791.0,0.8478
792.0,0.8558
793.0,0.8638
794.0,0.87
795.0,0.8723
796.0,0.8745
797.0,0.8758
798.0,0.8762
799.0,0.8763
800.0,0.876
801.0,0.8757
802.0,0.8754
803.0,0.8749
804.0,0.8788
805.0,0.8735
806.0,0.8728
807.0,0.872
808.0,0.8713
809.0,0.8706
810.0,0.8699
811.0,0.8691
812.0,0.8684
813.0,0.8676
814.0,0.8666
815.0,0.8657
816.0,0.8648
817.0,0.8639
818.0,0.863
819.0,0.862
820.0,0.8611
821.0,0.8601
822.0,0.8589
823.0,0.8576
824.0,0.8563
825.0,0.8551
826.0,0.8487
827.0,0.839
828.0,0.8293
829.0,0.8195
830.0,0.8098
831.0,0.8001
832.0,0.7903
833.0,0.7806
834.0,0.7709
835.0,0.7611
836.0,0.7525
837.0,0.7516
838.0,0.7511
839.0,0.7507
840.0,0.7505
841.0,0.7504
842.0,0.7502
843.0,0.75
844.0,0.7471
845.0,0.7199
846.0,0.6927
847.0,0.6655
848.0,0.6383
849.0,0.6112
850.0,0.584
851.0,0.5568
852.0,0.5296
853.0,0.5024
854.0,0.4752
855.0,0.4499
856.0,0.4488
857.0,0.4487
858.0,0.4493
859.0,0.4496
860.0,0.4595
861.0,0.4765
862.0,0.4934
863.0,0.5103
864.0,0.5273
865.0,0.5442
866.0,0.5611
867.0,0.5781
868.0,0.595
869.0,0.612
870.0,0.6289
871.0,0.6458
872.0,0.6628
873.0,0.6797
874.0,0.6967
875.0,0.7136
876.0,0.7298
877.0,0.7299
878.0,0.7295
879.0,0.7322
880.0,0.7284
881.0,0.7277
882.0,0.7229
883.0,0.7025
884.0,0.6821
885.0,0.6616
886.0,0.6412
887.0,0.6208
888.0,0.6004
889.0,0.58
890.0,0.5595
891.0,0.5391
892.0,0.5187
893.0,0.4983
894.0,0.4778
895.0,0.4574
896.0,0.437
897.0,0.4166
898.0,0.3962
899.0,0.3757
900.0,0.3553
901.0,0.3349
902.0,0.3174
903.0,0.3171
904.0,0.3178
905.0,0.3625
906.0,0.4587
907.0,0.5068
908.0,0.5064
909.0,0.4969
910.0,0.4818
911.0,0.4667
912.0,0.4517
913.0,0.4366
914.0,0.4265
915.0,0.4262
916.0,0.4594
917.0,0.4935
918.0,0.5276
919.0,0.5616
920.0,0.5957
921.0,0.6298
922.0,0.6639
923.0,0.6979
924.0,0.732
925.0,0.7661
926.0,0.7939
927.0,0.803
928.0,0.8101
929.0,0.8151
930.0,0.8202
931.0,0.8239
932.0,0.8273
933.0,0.8307
934.0,0.8341
935.0,0.8375
936.0,0.8408
937.0,0.8441
938.0,0.8473
939.0,0.8495
940.0,0.8515
941.0,0.853
942.0,0.8545
943.0,0.8539
944.0,0.854
945.0,0.8531
946.0,0.8521
947.0,0.851
948.0,0.8497
949.0,0.8485
950.0,0.8472
951.0,0.8464
952.0,0.8458
953.0,0.8452
954.0,0.8447
955.0,0.8442
956.0,0.8438
957.0,0.8435
958.0,0.8431
959.0,0.8427
960.0,0.8424
961.0,0.8421
962.0,0.8419
963.0,0.8417
964.0,0.8416
965.0,0.8415
966.0,0.8414
967.0,0.8413
968.0,0.8412
969.0,0.8412
970.0,0.8411
971.0,0.8408
972.0,0.838
973.0,0.8351
974.0,0.8322
975.0,0.826
976.0,0.8152
977.0,0.8045
978.0,0.7937
979.0,0.783
980.0,0.7723
981.0,0.7615
982.0,0.7508
983.0,0.7481
984.0,0.7491
985.0,0.7492
986.0,0.7572
987.0,0.7651
988.0,0.7731
989.0,0.781
990.0,0.785
991.0,0.7852
992.0,0.7847
993.0,0.7834
994.0,0.7836
995.0,0.7788
996.0,0.7737
997.0,0.7688
998.0,0.7607
999.0,0.7519
1000.0,0.744
1001.0,0.7361
1002.0,0.7283
1003.0,0.7188
1004.0,0.7092
1005.0,0.6995
1006.0,0.69
1007.0,0.6811
1008.0,0.6729
1009.0,0.6717
1010.0,0.6717
1011.0,0.6717
1012.0,0.6726
1013.0,0.6782
1014.0,0.6815
1015.0,0.6712
1016.0,0.661
1017.0,0.6507
1018.0,0.6405
1019.0,0.6302
1020.0,0.62
1021.0,0.618
1022.0,0.6224
1023.0,0.6223
1024.0,0.6427
1025.0,0.6631
1026.0,0.6836
1027.0,0.704
1028.0,0.7244
1029.0,0.7339
1030.0,0.735
1031.0,0.7361
1032.0,0.7374
1033.0,0.7388
1034.0,0.7413
1035.0,0.7541
1036.0,0.7669
1037.0,0.7797
1038.0,0.7924
1039.0,0.8052
1040.0,0.8132
1041.0,0.8179
1042.0,0.8224
1043.0,0.8265
1044.0,0.8307
1045.0,0.8325
1046.0,0.8339
1047.0,0.8343
1048.0,0.8338
1049.0,0.837
1050.0,0.8318
1051.0,0.8291
1052.0,0.823
1053.0,0.8105
1054.0,0.7979
1055.0,0.7854
1056.0,0.7728
1057.0,0.7603
1058.0,0.7477
1059.0,0.7352
1060.0,0.7223
1061.0,0.7117
1062.0,0.7021
1063.0,0.6955
1064.0,0.6939
1065.0,0.6952
1066.0,0.6963
1067.0,0.6987
1068.0,0.702
1069.0,0.7052
1070.0,0.7083
1071.0,0.7178
1072.0,0.7314
1073.0,0.7451
1074.0,0.7588
1075.0,0.7724
1076.0,0.7861
1077.0,0.7997
1078.0,0.8134
1079.0,0.8241
1080.0,0.8281
1081.0,0.8321
1082.0,0.8359
1083.0,0.8391
1084.0,0.8423
1085.0,0.8456
1086.0,0.8491
1087.0,0.8526
1088.0,0.8561
1089.0,0.8578
1090.0,0.8593
1091.0,0.8609
1092.0,0.8618
1093.0,0.8621
1094.0,0.8624
1095.0,0.8623
1096.0,0.8627
1097.0,0.861
1098.0,0.8604
1099.0,0.8597
1100.0,0.8589
1101.0,0.858
1102.0,0.8571
1103.0,0.8562
1104.0,0.8553
1105.0,0.8542
1106.0,0.8531
1107.0,0.8521
1108.0,0.851
1109.0,0.8499
1110.0,0.8486
1111.0,0.8469
1112.0,0.845
1113.0,0.8418
1114.0,0.8379
1115.0,0.8328
1116.0,0.8276
1117.0,0.82
1118.0,0.8127
1119.0,0.8061
1120.0,0.7995
1121.0,0.7929
1122.0,0.7863
1123.0,0.7783
1124.0,0.7698
1125.0,0.7518
1126.0,0.7273
1127.0,0.7028
1128.0,0.6783
1129.0,0.6539
1130.0,0.6294
1131.0,0.6049
1132.0,0.5804
1133.0,0.56
1134.0,0.5603
1135.0,0.5637
1136.0,0.5613
1137.0,0.5652
1138.0,0.5704
1139.0,0.5756
1140.0,0.5808
1141.0,0.586
1142.0,0.5912
1143.0,0.5964
1144.0,0.6016
1145.0,0.6179
1146.0,0.641
1147.0,0.664
1148.0,0.6871
1149.0,0.7102
1150.0,0.7333
1151.0,0.7423
1152.0,0.7421
1153.0,0.7419
1154.0,0.7417
1155.0,0.7414
1156.0,0.7411
1157.0,0.7413
1158.0,0.7415
1159.0,0.742
1160.0,0.7425
1161.0,0.7433
1162.0,0.7473
1163.0,0.7527
1164.0,0.7581
1165.0,0.7635
1166.0,0.7689
1167.0,0.7743
1168.0,0.7797
1169.0,0.7852
1170.0,0.7906
1171.0,0.796
1172.0,0.8014
1173.0,0.8068
1174.0,0.8122
1175.0,0.8176
1176.0,0.823
1177.0,0.8284
1178.0,0.8334
1179.0,0.8381
1180.0,0.8418
1181.0,0.8455
1182.0,0.849
1183.0,0.8516
1184.0,0.8542
1185.0,0.8559
1186.0,0.8572
1187.0,0.8583
1188.0,0.8592
1189.0,0.8601
1190.0,0.861
1191.0,0.8619
1192.0,0.8628
1193.0,0.8629
1194.0,0.8631
1195.0,0.8631
1196.0,0.8662
1197.0,0.863
1198.0,0.8629
1199.0,0.8623
1200.0,0.8614
1201.0,0.8596
1202.0,0.8578
1203.0,0.8557
1204.0,0.8531
1205.0,0.8489
1206.0,0.8448
1207.0,0.8398
1208.0,0.8332
1209.0,0.827
1210.0,0.8243
1211.0,0.8226
1212.0,0.8213
1213.0,0.8216
1214.0,0.8219
1215.0,0.8231
1216.0,0.8243
1217.0,0.8254
1218.0,0.826
1219.0,0.8259
1220.0,0.8258
1221.0,0.8254
1222.0,0.8227
1223.0,0.8183
1224.0,0.813
1225.0,0.806
1226.0,0.7983
1227.0,0.7902
1228.0,0.7814
1229.0,0.7727
1230.0,0.7608
1231.0,0.7488
1232.0,0.74
1233.0,0.7387
1234.0,0.7384
1235.0,0.7402
1236.0,0.747
1237.0,0.7515
1238.0,0.753
1239.0,0.7529
1240.0,0.7525
1241.0,0.752
1242.0,0.7505
1243.0,0.748
1244.0,0.7445
1245.0,0.741
1246.0,0.7373
1247.0,0.7324
1248.0,0.727
1249.0,0.7231
1250.0,0.7193
1251.0,0.7154
1252.0,0.7107
1253.0,0.7059
1254.0,0.7011
1255.0,0.6908
1256.0,0.6496
1257.0,0.6085
1258.0,0.5674
1259.0,0.5635
1260.0,0.5661
1261.0,0.5642
1262.0,0.5831
1263.0,0.6059
1264.0,0.6286
1265.0,0.6514
1266.0,0.6742
1267.0,0.6969
1268.0,0.7197
1269.0,0.7382
1270.0,0.7447
1271.0,0.7507
1272.0,0.7552
1273.0,0.7597
1274.0,0.7626
1275.0,0.7649
1276.0,0.7656
1277.0,0.765
1278.0,0.7643
1279.0,0.7626
1280.0,0.7605
1281.0,0.7583
1282.0,0.7526
1283.0,0.7467
1284.0,0.7408
1285.0,0.7349
1286.0,0.729
1287.0,0.7231
1288.0,0.7172
1289.0,0.7113
1290.0,0.7054
1291.0,0.6995
1292.0,0.6934
1293.0,0.6873
1294.0,0.6811
1295.0,0.6749
1296.0,0.6686
1297.0,0.6624
1298.0,0.6471
1299.0,0.6316
1300.0,0.6162
1301.0,0.6008
1302.0,0.5854
1303.0,0.5742
1304.0,0.5755
1305.0,0.5744
1306.0,0.5761
1307.0,0.5929
1308.0,0.6096
1309.0,0.6264
1310.0,0.6431
1311.0,0.6599
1312.0,0.6766
1313.0,0.6873
1314.0,0.6883
1315.0,0.6896
1316.0,0.6895
1317.0,0.689
1318.0,0.6882
1319.0,0.6873
1320.0,0.6777
1321.0,0.6647
1322.0,0.6517
1323.0,0.6387
1324.0,0.6257
1325.0,0.6158
1326.0,0.6142
1327.0,0.6131
1328.0,0.612
1329.0,0.6109
1330.0,0.6096
1331.0,0.6075
1332.0,0.6053
1333.0,0.601
1334.0,0.5787
1335.0,0.5393
1336.0,0.5
1337.0,0.4607
1338.0,0.4513
1339.0,0.4515
1340.0,0.4534
1341.0,0.4801
1342.0,0.5059
1343.0,0.5318
1344.0,0.5577
1345.0,0.5835
1346.0,0.5924
1347.0,0.5928
1348.0,0.5917
1349.0,0.587
1350.0,0.5804
1351.0,0.5739
1352.0,0.5674
1353.0,0.5609
1354.0,0.5543
1355.0,0.5261
1356.0,0.4903
1357.0,0.4545
1358.0,0.4187
1359.0,0.3829
1360.0,0.347
1361.0,0.3202
1362.0,0.3102
1363.0,0.2979
1364.0,0.2851
1365.0,0.2757
1366.0,0.2662
1367.0,0.2501
1368.0,0.2241
1369.0,0.1963
1370.0,0.1685
1371.0,0.1407
1372.0,0.1129
1373.0,0.0852
1374.0,0.0574
1375.0,0.0296
1376.0,0.0221
1377.0,0.0206
1378.0,0.0206
1379.0,0.0152
1380.0,0.0217
1381.0,0.0411
1382.0,0.066
1383.0,0.091
1384.0,0.116
1385.0,0.1409
1386.0,0.1659
1387.0,0.1908
1388.0,0.2158
1389.0,0.2407
1390.0,0.2657
1391.0,0.2906
1392.0,0.3156
1393.0,0.3405
1394.0,0.3655
1395.0,0.3905
1396.0,0.4154
1397.0,0.4404
1398.0,0.4566
1399.0,0.4615
1400.0,0.4649
1401.0,0.4665
1402.0,0.4668
1403.0,0.4667
1404.0,0.4679
1405.0,0.4656
1406.0,0.4644
1407.0,0.4625
1408.0,0.4605
1409.0,0.4565
1410.0,0.4504
1411.0,0.443
1412.0,0.4356
1413.0,0.4282
1414.0,0.4208
1415.0,0.4135
1416.0,0.4061
1417.0,0.3987
1418.0,0.3913
1419.0,0.3839
1420.0,0.3765
1421.0,0.3691
1422.0,0.3617
1423.0,0.3543
1424.0,0.3383
1425.0,0.3291
1426.0,0.3195
1427.0,0.3089
1428.0,0.298
1429.0,0.2677
1430.0,0.2387
1431.0,0.2237
1432.0,0.2089
1433.0,0.1937
1434.0,0.177
1435.0,0.1585
1436.0,0.1413
1437.0,0.1254
1438.0,0.1095
1439.0,0.0966
1440.0,0.0838
1441.0,0.0653
1442.0,0.0491
1443.0,0.0404
1444.0,0.0323
1445.0,0.0263
1446.0,0.0203
1447.0,0.0157
1448.0,0.0121
1449.0,0.0094
1450.0,0.0072
1451.0,0.0063
1452.0,0.0054
1453.0,0.0047
1454.0,0.0045
1455.0,0.0042
1456.0,0.0042
1457.0,0.0042
1458.0,0.0042
1459.0,0.0043
1460.0,0.0045
1461.0,0.0043
1462.0,0.0049
1463.0,0.0052
1464.0,0.0055
1465.0,0.0059
1466.0,0.0062
1467.0,0.0068
1468.0,0.0076
1469.0,0.0084
1470.0,0.0092
1471.0,0.0103
1472.0,0.0115
1473.0,0.0131
1474.0,0.0158
1475.0,0.0302
1476.0,0.0471
1477.0,0.064
1478.0,0.0809
1479.0,0.0978
1480.0,0.1147
1481.0,0.1316
1482.0,0.1486
1483.0,0.1655
1484.0,0.1824
1485.0,0.1993
1486.0,0.2162
1487.0,0.2331
1488.0,0.25
1489.0,0.2669
1490.0,0.2824
1491.0,0.3308
1492.0,0.3513
1493.0,0.3626
1494.0,0.3738
1495.0,0.3863
1496.0,0.3997
1497.0,0.4181
1498.0,0.4787
1499.0,0.4912
1500.0,0.5036
1501.0,0.5161
1502.0,0.5253
1503.0,0.5337
1504.0,0.5421
1505.0,0.5507
1506.0,0.5637
1507.0,0.5779
1508.0,0.6129
1509.0,0.6238
1510.0,0.6311
1511.0,0.6385
1512.0,0.6458
1513.0,0.6517
1514.0,0.6567
1515.0,0.6616
1516.0,0.6665
1517.0,0.6715
1518.0,0.6764
1519.0,0.6825
1520.0,0.6894
1521.0,0.6962
1522.0,0.702
1523.0,0.7069
1524.0,0.7118
1525.0,0.7168
1526.0,0.7217
1527.0,0.7264
1528.0,0.7309
1529.0,0.7355
1530.0,0.74
1531.0,0.7446
1532.0,0.7491
1533.0,0.7531
1534.0,0.7563
1535.0,0.7594
1536.0,0.7625
1537.0,0.7657
1538.0,0.7688
1539.0,0.772
1540.0,0.7748
1541.0,0.7769
1542.0,0.779
1543.0,0.7811
1544.0,0.7832
1545.0,0.7852
1546.0,0.7873
1547.0,0.7894
1548.0,0.7915
1549.0,0.7936
1550.0,0.7956
1551.0,0.7976
1552.0,0.7996
1553.0,0.8015
1554.0,0.8035
1555.0,0.8055
1556.0,0.8072
1557.0,0.8086
1558.0,0.81
1559.0,0.8115
1560.0,0.8129
1561.0,0.8144
1562.0,0.8158
1563.0,0.8167
1564.0,0.8173
1565.0,0.818
1566.0,0.8187
1567.0,0.8194
1568.0,0.8201
1569.0,0.8208
1570.0,0.8214
1571.0,0.8221
1572.0,0.8228
1573.0,0.8234
1574.0,0.8239
1575.0,0.8243
1576.0,0.8248
1577.0,0.8252
1578.0,0.8256
1579.0,0.8261
1580.0,0.8265
1581.0,0.827
1582.0,0.8274
1583.0,0.8279
1584.0,0.828
1585.0,0.8281
1586.0,0.8282
1587.0,0.8288
1588.0,0.8299
1589.0,0.8311
1590.0,0.8322
1591.0,0.8333
1592.0,0.8344
1593.0,0.8356
1594.0,0.8367
1595.0,0.8378
1596.0,0.8389
1597.0,0.8404
1598.0,0.8427
1599.0,0.845
1600.0,0.8474
1601.0,0.8497
1602.0,0.852
1603.0,0.8544
1604.0,0.8568
1605.0,0.8591
1606.0,0.8613
1607.0,0.8633
1608.0,0.865
1609.0,0.8657
1610.0,0.8663
1611.0,0.867
1612.0,0.8676
1613.0,0.8683
1614.0,0.8689
1615.0,0.8696
1616.0,0.8704
1617.0,0.8712
1618.0,0.8716
1619.0,0.872
1620.0,0.8725
1621.0,0.8729
1622.0,0.8734
1623.0,0.8738
1624.0,0.8742
1625.0,0.8746
1626.0,0.8748
1627.0,0.875
1628.0,0.8751
1629.0,0.8753
1630.0,0.8755
1631.0,0.8756
1632.0,0.8758
1633.0,0.876
1634.0,0.8761
1635.0,0.8762
1636.0,0.8762
1637.0,0.8762
1638.0,0.8762
1639.0,0.8763
1640.0,0.8762
1641.0,0.8759
1642.0,0.8757
1643.0,0.8755
1644.0,0.8752
1645.0,0.875
1646.0,0.8748
1647.0,0.8745
1648.0,0.8743
1649.0,0.874
1650.0,0.8736
1651.0,0.8733
1652.0,0.8729
1653.0,0.8726
1654.0,0.8722
1655.0,0.8719
1656.0,0.8713
1657.0,0.8705
1658.0,0.8697
1659.0,0.8689
1660.0,0.8681
1661.0,0.8673
1662.0,0.8665
1663.0,0.8655
1664.0,0.8647
1665.0,0.8652
1666.0,0.8657
1667.0,0.8661
1668.0,0.8667
1669.0,0.8675
1670.0,0.8683
1671.0,0.8691
1672.0,0.8698
1673.0,0.8706
1674.0,0.8714
1675.0,0.8722
1676.0,0.8732
1677.0,0.8741
1678.0,0.8751
1679.0,0.8761
1680.0,0.8771
1681.0,0.8782
1682.0,0.8794
1683.0,0.8805
1684.0,0.8817
1685.0,0.8828
1686.0,0.884
1687.0,0.8851
1688.0,0.8863
1689.0,0.8874
1690.0,0.8885
1691.0,0.8895
1692.0,0.8905
1693.0,0.8915
1694.0,0.8925
1695.0,0.8934
1696.0,0.8944
1697.0,0.8954
1698.0,0.8964
1699.0,0.8974
1700.0,0.8984
1701.0,0.8993
1702.0,0.9002
1703.0,0.901
1704.0,0.9018
1705.0,0.9025
1706.0,0.9033
1707.0,0.904
1708.0,0.9048
1709.0,0.9055
1710.0,0.9063
1711.0,0.9071
1712.0,0.9078
1713.0,0.9086
1714.0,0.9093
1715.0,0.9098
1716.0,0.9101
1717.0,0.9104
1718.0,0.9108
1719.0,0.9111
1720.0,0.9114
1721.0,0.9118
1722.0,0.9121
1723.0,0.9124
1724.0,0.9118
1725.0,0.9111
1726.0,0.9104
1727.0,0.9101
1728.0,0.9099
1729.0,0.9097
1730.0,0.9095
1731.0,0.9093
1732.0,0.9092
1733.0,0.909
1734.0,0.9088
1735.0,0.9086
1736.0,0.9085
1737.0,0.9092
1738.0,0.91
1739.0,0.9111
1740.0,0.9124
1741.0,0.9137
1742.0,0.915
1743.0,0.9163
1744.0,0.9174
1745.0,0.9185
1746.0,0.9195
1747.0,0.9206
1748.0,0.9216
1749.0,0.9226
1750.0,0.9237
1751.0,0.9246
1752.0,0.9254
1753.0,0.9262
1754.0,0.9271
1755.0,0.9279
1756.0,0.9287
1757.0,0.9291
1758.0,0.9295
1759.0,0.9298
1760.0,0.9302
1761.0,0.9305
1762.0,0.9306
1763.0,0.9306
1764.0,0.9307
1765.0,0.9307
1766.0,0.9307
1767.0,0.9307
1768.0,0.9308
1769.0,0.9307
1770.0,0.9305
1771.0,0.9304
1772.0,0.9302
1773.0,0.93
1774.0,0.9299
1775.0,0.9297
1776.0,0.9295
1777.0,0.9294
1778.0,0.9298
1779.0,0.9302
1780.0,0.9306
1781.0,0.931
1782.0,0.9315
1783.0,0.9321
1784.0,0.9327
1785.0,0.9333
1786.0,0.9339
1787.0,0.9346
1788.0,0.9353
1789.0,0.9359
1790.0,0.9366
1791.0,0.9373
1792.0,0.9379
1793.0,0.9386
1794.0,0.9393
1795.0,0.9396
1796.0,0.9399
1797.0,0.9402
1798.0,0.9405
1799.0,0.9408
1800.0,0.9411
1801.0,0.9414
1802.0,0.9416
1803.0,0.9418
1804.0,0.9419
1805.0,0.942
1806.0,0.9422
1807.0,0.9423
1808.0,0.9425
1809.0,0.9426
1810.0,0.9428
1811.0,0.9429
1812.0,0.9431
1813.0,0.9432
1814.0,0.9432
1815.0,0.9433
1816.0,0.9434
1817.0,0.9435
1818.0,0.9435
1819.0,0.9436
1820.0,0.9437
1821.0,0.9438
1822.0,0.9439
1823.0,0.9439
1824.0,0.944
1825.0,0.947
