sigma,transmittance
400.894,0.573
401.9364436,0.578
402.97888720000003,0.579
404.0213308,0.581
405.0637744,0.588
406.106218,0.596
407.1486616,0.602
408.19110520000004,0.609
409.2335488,0.613
410.2759924,0.621
411.318436,0.628
412.36087960000003,0.632
413.40332320000005,0.635
414.4457668,0.64
415.4882104,0.643
416.530654,0.649
417.57309760000004,0.653
418.6155412,0.659
419.6579848,0.668
420.70042839999996,0.672
421.742872,0.677
422.7853156,0.682
423.8277592,0.685
424.87020279999996,0.69
425.91264639999997,0.695
426.95509,0.7
427.9975336,0.701
429.0399772,0.703
430.08242079999997,0.706
431.1248644,0.712
432.167308,0.72
433.2097516,0.724
434.2521952,0.726
435.2946388,0.73
436.3370824,0.733
437.379526,0.737
438.4219696,0.74
439.4644132,0.742
440.5068568,0.745
441.5493004,0.75
442.591744,0.75
443.6341876,0.751
444.67663120000003,0.753
445.7190748,0.755
446.7615184,0.759
447.803962,0.76
448.8464056,0.762
449.88884920000004,0.764
450.9312928,0.768
451.9737364,0.772
453.01618,0.773
454.05862360000003,0.775
455.10106720000005,0.78
456.1435108,0.782
457.1859544,0.785
458.228398,0.787
459.27084160000004,0.789
460.3132852,0.791
461.3557288,0.792
462.39817239999996,0.795
463.440616,0.796
464.4830596,0.797
465.5255032,0.798
466.56794679999996,0.799
467.61039039999997,0.8
468.652834,0.801
469.6952776,0.801
470.7377212,0.804
471.78016479999997,0.808
472.8226084,0.809
473.865052,0.81
474.9074956,0.811
475.9499392,0.811
476.9923828,0.813
478.0348264,0.817
479.07727,0.819
480.1197136,0.82
481.1621572,0.822
482.2046008,0.824
483.2470444,0.825
484.289488,0.826
485.3319316,0.829
486.37437520000003,0.829
487.4168188,0.83
488.4592624,0.831
489.501706,0.832
490.5441496,0.835
491.58659320000004,0.836
492.6290368,0.837
493.6714804,0.838
494.713924,0.838
495.75636760000003,0.838
496.79881120000005,0.838
497.8412548,0.838
498.8836984,0.84
499.926142,0.84
500.96858560000004,0.84
502.0110292,0.841
503.0534728,0.841
504.09591639999996,0.841
505.13836,0.841
506.1808036,0.841
507.2232472,0.841
508.26569079999996,0.842
509.3081344,0.843
510.350578,0.843
511.3930216,0.844
512.4354652,0.845
513.4779088,0.845
514.5203524000001,0.845
515.562796,0.845
516.6052398,0.845
517.6476836,0.845
518.6901274,0.845
519.7325712,0.845
520.775015,0.846
521.8174586,0.845
522.8599022,0.845
523.9023458,0.845
524.9447894,0.845
525.987233,0.845
527.0296765999999,0.846
528.0721202,0.846
529.1145637999999,0.847
530.1570074,0.847
531.199451,0.849
532.2418945999999,0.849
533.2843382,0.85
534.3267817999999,0.85
535.3692254,0.852
536.411669,0.852
537.4541125999999,0.853
538.4965562,0.851
539.5389997999999,0.851
540.5814434,0.85
541.623887,0.85
542.6663305999999,0.85
543.7087742,0.85
544.7512178,0.85
545.7936614,0.85
546.836105,0.851
547.8785485999999,0.852
548.9209922,0.853
549.9634358,0.852
551.0058794,0.852
552.048323,0.852
553.0907665999999,0.852
554.1332102,0.852
555.1756538,0.852
556.2180974,0.852
557.260541,0.852
558.3029846,0.852
559.3454282,0.852
560.3878718,0.852
561.4303154,0.852
562.472759,0.853
563.5152026,0.853
564.5576462,0.854
565.6000898,0.854
566.6425334,0.855
567.684977,0.856
568.7274206,0.856
569.7698642,0.856
570.8123078,0.856
571.8547514,0.856
572.897195,0.857
573.9396386,0.857
574.9820822,0.856
576.0245258,0.855
577.0669694000001,0.855
578.109413,0.854
579.1518566,0.854
580.1943002,0.855
581.2367438,0.855
582.2791874000001,0.855
583.321631,0.854
584.3640746,0.852
585.4065182,0.851
586.4489618,0.85
587.4914054000001,0.85
588.533849,0.849
589.5762926,0.85
590.6187362000001,0.85
591.6611798,0.851
592.7036234000001,0.852
593.746067,0.853
594.7885106,0.854
595.8309542000001,0.854
596.8733978,0.855
597.9158414000001,0.855
598.958285,0.854
600.0007286,0.854
601.0431722000001,0.853
602.0856158,0.852
603.1280594000001,0.851
604.170503,0.851
605.2129466,0.851
606.2553902,0.85
607.2978338,0.85
608.3402774,0.85
609.382721,0.85
610.4251645999999,0.85
611.4676082,0.85
612.5100517999999,0.851
613.5524954,0.851
614.594939,0.851
615.6373825999999,0.851
616.6798262,0.852
617.7222697999999,0.852
618.7647134,0.852
619.807157,0.852
620.8496005999999,0.852
621.8920442,0.852
622.9344877999999,0.852
623.9769314,0.852
625.019375,0.852
626.0618185999999,0.852
627.1042622,0.852
628.1467058,0.852
629.1891494,0.852
630.231593,0.852
631.2740365999999,0.852
632.3164802,0.852
633.3589238,0.853
634.4013674,0.854
635.443811,0.854
636.4862545999999,0.854
637.5286982,0.854
638.5711418,0.854
639.6135854,0.854
640.656029,0.856
641.6984726,0.858
642.7409162,0.859
643.7833598,0.859
644.8258034,0.86
645.868247,0.86
646.9106906,0.859
647.9531342,0.858
648.9955778,0.858
650.0380214,0.858
651.080465,0.857
652.1229086,0.857
653.1653522,0.857
654.2077958,0.857
655.2502394,0.857
656.292683,0.857
657.3351266,0.857
658.3775702,0.856
659.4200138,0.855
660.4624574000001,0.855
661.504901,0.854
662.5473446,0.852
663.5897882,0.85
664.6322318,0.849
665.6746754000001,0.847
666.717119,0.848
667.7595626,0.849
668.8020062,0.851
669.8444498,0.852
670.8868934000001,0.851
671.929337,0.848
672.9717806,0.848
674.0142242000001,0.848
675.0566678,0.847
676.0991114000001,0.848
677.141555,0.849
678.1839986,0.852
679.2264422000001,0.853
680.2688858,0.854
681.3113294000001,0.853
682.353773,0.852
683.3962166,0.852
684.4386602000001,0.851
685.4811038,0.85
686.5235474000001,0.85
687.565991,0.85
688.6084346,0.85
689.6508782,0.849
690.6933218,0.849
691.7357654,0.849
692.778209,0.849
693.8206525999999,0.848
694.8630962,0.847
695.9055397999999,0.846
696.9479834,0.846
697.990427,0.846
699.0328705999999,0.846
700.0753142,0.846
701.1177577999999,0.845
702.1602014,0.844
703.202645,0.844
704.2450885999999,0.844
705.2875322,0.843
706.3299757999999,0.842
707.3724194,0.84
708.414863,0.839
709.4573065999999,0.839
710.4997502,0.839
711.5421938,0.838
712.5846374,0.835
713.627081,0.832
714.6695245999999,0.83
715.7119682,0.828
716.7544118,0.826
717.7968554,0.826
718.839299,0.825
719.8817425999999,0.824
720.9241862,0.823
721.9666298,0.822
723.0090734,0.821
724.051517,0.82
725.0939606,0.819
726.1364042,0.818
727.1788478,0.818
728.2212914,0.817
729.263735,0.817
730.3061786,0.817
731.3486222,0.818
732.3910658,0.819
733.4335094,0.82
734.475953,0.82
735.5183966,0.821
736.5608402,0.82
737.6032838,0.819
738.6457274,0.819
739.688171,0.819
740.7306146,0.82
741.7730582,0.822
742.8155018,0.824
743.8579454000001,0.824
744.900389,0.827
745.9428326,0.828
746.9852762,0.829
748.0277198,0.83
749.0701634000001,0.83
750.112607,0.83
751.1550508,0.83
752.1974946,0.831
753.2399384,0.832
754.2823822,0.832
755.324826,0.832
756.3672696,0.832
757.4097132,0.831
758.4521568,0.831
759.4946004000001,0.83
760.537044,0.83
761.5794876,0.832
762.6219312000001,0.834
763.6643748,0.834
764.7068184000001,0.832
765.749262,0.832
766.7917056,0.832
767.8341492000001,0.834
768.8765928,0.834
769.9190364000001,0.834
770.96148,0.832
772.0039236,0.834
773.0463672,0.834
774.0888108,0.834
775.1312544,0.835
776.173698,0.834
777.2161415999999,0.834
778.2585852,0.834
779.3010287999999,0.834
780.3434724,0.835
781.385916,0.835
782.4283595999999,0.838
783.4708032,0.839
784.5132467999999,0.839
785.5556904,0.839
786.598134,0.839
787.6405775999999,0.84
788.6830212,0.84
789.7254647999999,0.839
790.7679084,0.838
791.810352,0.838
792.8527955999999,0.839
793.8952392,0.839
794.9376828,0.839
795.9801264,0.84
797.02257,0.841
798.0650135999999,0.841
799.1074572,0.841
800.1499008,0.841
801.1923444,0.841
802.234788,0.842
803.2772315999999,0.842
804.3196752,0.842
805.3621188,0.842
806.4045624,0.842
807.447006,0.842
808.4894496,0.842
809.5318932,0.841
810.5743368,0.842
811.6167804,0.842
812.659224,0.842
813.7016676,0.842
814.7441112,0.843
815.7865548,0.844
816.8289984,0.844
817.871442,0.844
818.9138856,0.843
819.9563292,0.842
820.9987728,0.84
822.0412164,0.84
823.08366,0.841
824.1261036,0.841
825.1685472,0.841
826.2109908,0.842
827.2534344000001,0.842
828.295878,0.843
829.3383216,0.843
830.3807652,0.842
831.4232088,0.842
832.4656524000001,0.84
833.508096,0.839
834.5505396,0.839
835.5929832,0.839
836.6354268,0.84
837.6778704000001,0.841
838.720314,0.842
839.7627576,0.842
840.8052012,0.843
841.8476448,0.843
842.8900884000001,0.842
843.932532,0.841
844.9749756,0.84
846.0174192000001,0.84
847.0598628,0.839
848.1023064000001,0.839
849.14475,0.839
850.1871936,0.838
851.2296372000001,0.837
852.2720808,0.836
853.3145244000001,0.836
854.356968,0.836
855.3994116,0.835
856.4418552,0.835
857.4842988,0.835
858.5267424,0.835
859.569186,0.835
860.6116295999999,0.835
861.6540732,0.834
862.6965167999999,0.832
863.7389604,0.832
864.781404,0.832
865.8238475999999,0.832
866.8662912,0.834
867.9087347999999,0.834
868.9511784,0.834
869.993622,0.834
871.0360655999999,0.835
872.0785092,0.837
873.1209527999999,0.839
874.1633964,0.839
875.20584,0.84
876.2482835999999,0.841
877.2907272,0.842
878.3331708,0.842
879.3756144,0.842
880.418058,0.84
881.4605015999999,0.838
882.5029452,0.838
883.5453888,0.839
884.5878324,0.839
885.630276,0.839
886.6727195999999,0.839
887.7151632,0.839
888.7576068,0.839
889.8000504,0.838
890.842494,0.837
891.8849376,0.834
892.9273812,0.83
893.9698248,0.83
895.0122684,0.829
896.054712,0.828
897.0971556,0.825
898.1395992,0.824
899.1820428,0.824
900.2244864,0.824
901.26693,0.824
902.3093736,0.823
903.3518172,0.823
904.3942608,0.821
905.4367044,0.821
906.479148,0.82
907.5215916,0.819
908.5640352,0.818
909.6064788,0.817
910.6489224000001,0.816
911.691366,0.815
912.7338096,0.814
913.7762532,0.814
914.8186968,0.814
915.8611404000001,0.815
916.903584,0.817
917.9460276,0.82
918.9884712,0.821
920.0309148,0.823
921.0733584000001,0.824
922.115802,0.827
923.1582456,0.828
924.2006892,0.829
925.2431328,0.831
926.2855764000001,0.832
927.32802,0.834
928.3704636,0.835
929.4129072000001,0.836
930.4553508,0.839
931.4977944000001,0.84
932.540238,0.841
933.5826816,0.842
934.6251252000001,0.844
935.6675688,0.845
936.7100124000001,0.845
937.752456,0.845
938.7948996,0.845
939.8373432,0.845
940.8797868,0.846
941.9222304,0.847
942.964674,0.847
944.0071175999999,0.848
945.0495612,0.847
946.0920047999999,0.846
947.1344484,0.846
948.176892,0.845
949.2193355999999,0.845
950.2617792,0.845
951.3042227999999,0.845
952.3466664,0.845
953.38911,0.846
954.4315535999999,0.846
955.4739972,0.846
956.5164407999999,0.848
957.5588844,0.849
958.601328,0.849
959.6437715999999,0.849
960.6862152,0.849
961.7286588,0.852
962.7711024,0.852
963.813546,0.85
964.8559895999999,0.849
965.8984332,0.846
966.9408768,0.845
967.9833204,0.845
969.025764,0.845
970.0682075999999,0.845
971.1106512,0.846
972.1530948,0.848
973.1955384,0.85
974.237982,0.85
975.2804256,0.849
976.3228692,0.846
977.3653128,0.842
978.4077564,0.841
979.4502,0.84
980.4926436,0.839
981.5350872,0.839
982.5775308,0.841
983.6199744,0.841
984.662418,0.842
985.7048616,0.843
986.7473052,0.843
987.7897488,0.843
988.8321924,0.842
989.874636,0.842
990.9170798,0.841
991.9595236,0.841
993.0019674,0.841
994.0444112,0.841
995.086855,0.841
996.1292986,0.841
997.1717422,0.841
998.2141858,0.841
999.2566294000001,0.841
1000.299073,0.841
1001.3415166,0.84
1002.3839602,0.838
1003.4264038,0.838
1004.4688474000001,0.838
1005.511291,0.837
1006.5537346,0.836
1007.5961782,0.835
1008.6386218,0.835
1009.6810654000001,0.835
1010.723509,0.835
1011.7659526,0.835
1012.8083962000001,0.834
1013.8508398,0.834
1014.8932834000001,0.831
1015.935727,0.829
1016.9781706,0.828
1018.0206142000001,0.828
1019.0630578,0.828
1020.1055014000001,0.828
1021.147945,0.828
1022.1903886,0.828
1023.2328322000001,0.828
1024.2752758000001,0.828
1025.3177194,0.828
1026.360163,0.828
1027.4026066000001,0.828
1028.4450502,0.829
1029.4874938,0.829
1030.5299373999999,0.831
1031.572381,0.831
1032.6148246,0.832
1033.6572682,0.832
1034.6997118,0.832
1035.7421554,0.832
1036.784599,0.832
1037.8270426000001,0.832
1038.8694862,0.832
1039.9119298,0.832
1040.9543734,0.832
1041.996817,0.835
1043.0392606,0.836
1044.0817042,0.835
1045.1241478,0.835
1046.1665914,0.835
1047.209035,0.835
1048.2514786000002,0.835
1049.2939222,0.836
1050.3363658,0.837
1051.3788094,0.838
1052.421253,0.838
1053.4636966,0.838
1054.5061402000001,0.838
1055.5485838,0.836
1056.5910274,0.835
1057.633471,0.834
1058.6759146000002,0.834
1059.7183582,0.832
1060.7608018,0.832
1061.8032454,0.831
1062.845689,0.831
1063.8881326,0.831
1064.9305762,0.831
1065.9730198,0.831
1067.0154633999998,0.831
1068.057907,0.829
1069.1003506,0.829
1070.1427942,0.828
1071.1852377999999,0.828
1072.2276814,0.829
1073.270125,0.829
1074.3125686,0.83
1075.3550122,0.831
1076.3974558,0.831
1077.4398993999998,0.832
1078.482343,0.834
1079.5247866,0.835
1080.5672302,0.835
1081.6096737999999,0.835
1082.6521174,0.835
1083.694561,0.835
1084.7370046,0.835
1085.7794482,0.834
1086.8218918,0.835
1087.8643353999998,0.835
1088.906779,0.836
1089.9492226,0.838
1090.9916662,0.839
1092.0341098,0.839
1093.0765534,0.839
1094.118997,0.838
1095.1614406,0.837
1096.2038842,0.836
1097.2463278,0.836
1098.2887713999999,0.836
1099.331215,0.836
1100.3736586,0.835
1101.4161022,0.834
1102.4585458,0.835
1103.5009894,0.836
1104.543433,0.837
1105.5858766000001,0.837
1106.6283202,0.834
1107.6707638,0.832
1108.7132073999999,0.832
1109.755651,0.831
1110.7980946,0.831
1111.8405382,0.83
1112.8829818,0.83
1113.9254254,0.83
1114.967869,0.83
1116.0103126000001,0.83
1117.0527562,0.829
1118.0951998,0.829
1119.1376434,0.827
1120.180087,0.826
1121.2225306,0.825
1122.2649742,0.824
1123.3074178,0.824
1124.3498614,0.823
1125.392305,0.823
1126.4347486000001,0.823
1127.4771922,0.824
1128.5196358,0.824
1129.5620794,0.825
1130.604523,0.825
1131.6469666,0.825
1132.6894102,0.824
1133.7318538,0.824
1134.7742974,0.824
1135.816741,0.826
1136.8591846000002,0.827
1137.9016282,0.828
1138.9440718,0.828
1139.9865154,0.828
1141.028959,0.828
1142.0714026,0.827
1143.1138462000001,0.827
1144.1562898,0.827
1145.1987334,0.826
1146.241177,0.825
1147.2836206000002,0.824
1148.3260642,0.823
1149.3685078,0.823
1150.4109514,0.823
1151.453395,0.824
1152.4958386,0.825
1153.5382822,0.825
1154.5807258,0.826
1155.6231693999998,0.826
1156.665613,0.828
1157.7080566,0.829
1158.7505002,0.83
1159.7929437999999,0.831
1160.8353874,0.831
1161.877831,0.834
1162.9202746,0.835
1163.9627182,0.835
1165.0051618,0.836
1166.0476053999998,0.837
1167.090049,0.838
1168.1324926,0.838
1169.1749362,0.838
1170.2173798,0.838
1171.2598234,0.838
1172.302267,0.838
1173.3447106,0.838
1174.3871542,0.838
1175.4295978,0.839
1176.4720413999999,0.839
1177.514485,0.839
1178.5569286,0.839
1179.5993722,0.839
1180.6418158,0.839
1181.6842594,0.84
1182.726703,0.841
1183.7691466,0.841
1184.8115902,0.84
1185.8540338,0.839
1186.8964773999999,0.839
1187.938921,0.838
1188.9813646,0.837
1190.0238082,0.837
1191.0662518,0.837
1192.1086954,0.836
1193.151139,0.835
1194.1935826000001,0.834
1195.2360262,0.832
1196.2784698,0.83
1197.3209133999999,0.83
1198.363357,0.831
1199.4058006,0.831
1200.4482442,0.832
1201.4906878,0.832
1202.5331314,0.834
1203.575575,0.832
1204.6180186000001,0.832
1205.6604622,0.834
1206.7029058,0.834
1207.7453494,0.832
1208.787793,0.832
1209.8302366,0.831
1210.8726802,0.831
1211.9151238,0.831
1212.9575674,0.83
1214.000011,0.83
1215.0424546000002,0.83
1216.0848982,0.831
1217.1273418,0.831
1218.1697854,0.832
1219.212229,0.832
1220.2546726,0.832
1221.2971162000001,0.831
1222.3395598,0.83
1223.3820034,0.829
1224.424447,0.829
1225.4668908,0.829
1226.5093346,0.829
1227.5517784,0.829
1228.5942222,0.828
1229.636666,0.827
1230.6791096000002,0.827
1231.7215532,0.827
1232.7639968,0.828
1233.8064404,0.828
1234.848884,0.828
1235.8913276,0.826
1236.9337712,0.826
1237.9762148,0.826
1239.0186583999998,0.826
1240.061102,0.826
1241.1035456,0.827
1242.1459892,0.827
1243.1884327999999,0.825
1244.2308764,0.825
1245.27332,0.825
1246.3157636,0.825
1247.3582072,0.828
1248.4006508,0.828
1249.4430943999998,0.829
1250.485538,0.829
1251.5279816,0.828
1252.5704252,0.828
1253.6128688,0.828
1254.6553124,0.825
1255.697756,0.822
1256.7401996,0.821
1257.7826432,0.82
1258.8250868,0.82
1259.8675303999999,0.821
1260.909974,0.822
1261.9524176,0.822
1262.9948612,0.824
1264.0373048,0.824
1265.0797484,0.825
1266.122192,0.825
1267.1646356,0.824
1268.2070792,0.823
1269.2495228,0.823
1270.2919663999999,0.822
1271.33441,0.823
1272.3768536,0.824
1273.4192972,0.825
1274.4617408,0.827
1275.5041844,0.828
1276.546628,0.828
1277.5890716000001,0.829
1278.6315152,0.83
1279.6739588,0.83
1280.7164023999999,0.831
1281.758846,0.831
1282.8012896,0.832
1283.8437332,0.832
1284.8861768,0.832
1285.9286204,0.834
1286.971064,0.834
1288.0135076000001,0.832
1289.0559512,0.832
1290.0983948,0.831
1291.1408384,0.83
1292.183282,0.828
1293.2257256,0.828
1294.2681692,0.829
1295.3106128,0.829
1296.3530564,0.83
1297.3955,0.83
1298.4379436000002,0.829
1299.4803872,0.828
1300.5228308,0.824
1301.5652744,0.82
1302.607718,0.82
1303.6501616,0.821
1304.6926052000001,0.822
1305.7350488,0.823
1306.7774924,0.824
1307.819936,0.824
1308.8623796000002,0.824
1309.9048232,0.825
1310.9472668,0.825
1311.9897104,0.826
1313.032154,0.826
1314.0745976,0.825
1315.1170412000001,0.824
1316.1594848,0.824
1317.2019284,0.824
1318.244372,0.824
1319.2868156000002,0.825
1320.3292592,0.825
1321.3717028,0.825
1322.4141464,0.826
1323.45659,0.826
1324.4990336,0.826
1325.5414772,0.827
1326.5839208,0.827
1327.6263643999998,0.826
1328.668808,0.825
1329.7112516,0.822
1330.7536952,0.819
1331.7961387999999,0.818
1332.8385824,0.817
1333.881026,0.815
1334.9234696,0.813
1335.9659132,0.811
1337.0083568,0.81
1338.0508003999998,0.809
1339.093244,0.809
1340.1356876,0.809
1341.1781312,0.809
1342.2205748,0.809
1343.2630184,0.809
1344.305462,0.809
1345.3479056,0.809
1346.3903492,0.807
1347.4327928,0.804
1348.4752363999999,0.802
1349.51768,0.801
1350.5601236,0.8
1351.6025672,0.798
1352.6450108,0.796
1353.6874544,0.795
1354.729898,0.793
1355.7723416000001,0.792
1356.8147852,0.791
1357.8572288,0.789
1358.8996723999999,0.785
1359.942116,0.783
1360.9845596,0.778
1362.0270032,0.772
1363.0694468,0.769
1364.1118904,0.768
1365.154334,0.767
1366.1967776000001,0.765
1367.2392212,0.762
1368.2816648,0.759
1369.3241084,0.756
1370.366552,0.751
1371.4089956,0.744
1372.4514392,0.738
1373.4938828,0.73
1374.5363264,0.725
1375.57877,0.721
1376.6212136000001,0.72
1377.6636572,0.719
1378.7061008,0.718
1379.7485444,0.719
1380.790988,0.72
1381.8334316,0.721
1382.8758752,0.726
1383.9183188,0.728
1384.9607624,0.729
1386.003206,0.728
1387.0456496000002,0.725
1388.0880932,0.723
1389.1305368,0.724
1390.1729804,0.726
1391.215424,0.729
1392.2578676,0.735
1393.3003112000001,0.741
1394.3427548,0.747
1395.3851984,0.756
1396.427642,0.763
1397.4700856000002,0.77
1398.5125292,0.773
1399.5549728,0.778
1400.5974164,0.779
1401.63986,0.785
1402.6823036,0.792
1403.7247472,0.794
1404.7671908,0.797
1405.8096343999998,0.8
1406.852078,0.802
1407.8945216,0.808
1408.9369652,0.809
1409.9794087999999,0.81
1411.0218524,0.81
1412.064296,0.81
1413.1067396,0.809
1414.1491832,0.809
1415.1916268,0.809
1416.2340703999998,0.809
1417.276514,0.808
1418.3189576,0.807
1419.3614012,0.807
1420.4038448,0.806
1421.4462884,0.804
1422.488732,0.802
1423.5311756,0.8
1424.5736192,0.799
1425.6160628,0.798
1426.6585063999999,0.796
1427.70095,0.793
1428.7433936,0.79
